#epsilon_r [GeV] - (n,g) - (p,g) [mb]
1.58489e-01 2.03493e+01 2.00857e+01
1.61899e-01 3.19118e+01 3.14665e+01
1.65382e-01 4.35250e+01 4.28875e+01
1.68939e-01 5.50006e+01 5.41589e+01
1.72574e-01 6.62453e+01 6.51862e+01
1.76286e-01 7.72194e+01 7.59278e+01
1.80079e-01 8.79169e+01 8.63760e+01
1.83953e-01 9.83562e+01 9.65472e+01
1.87910e-01 1.08575e+02 1.06476e+02
1.91952e-01 1.18627e+02 1.16215e+02
1.96082e-01 1.28581e+02 1.25828e+02
2.00300e-01 1.38522e+02 1.35398e+02
2.04609e-01 1.48550e+02 1.45020e+02
2.09010e-01 1.58783e+02 1.54808e+02
2.13507e-01 1.69359e+02 1.64893e+02
2.18100e-01 1.80433e+02 1.75426e+02
2.22792e-01 1.92181e+02 1.86576e+02
2.27585e-01 2.04796e+02 1.98526e+02
2.32481e-01 2.18484e+02 2.11475e+02
2.37482e-01 2.33453e+02 2.25619e+02
2.42591e-01 2.49905e+02 2.41148e+02
2.47809e-01 2.68014e+02 2.58225e+02
2.53140e-01 2.87911e+02 2.76966e+02
2.58586e-01 3.09665e+02 2.97425e+02
2.64149e-01 3.33261e+02 3.19573e+02
2.69831e-01 3.58592e+02 3.43288e+02
2.75636e-01 3.85444e+02 3.68348e+02
2.81566e-01 4.13497e+02 3.94429e+02
2.87623e-01 4.42311e+02 4.21100e+02
2.93810e-01 4.71306e+02 4.47808e+02
3.00131e-01 4.99714e+02 4.73838e+02
3.06588e-01 5.26527e+02 4.98267e+02
3.13183e-01 5.50436e+02 5.19910e+02
3.19920e-01 5.69846e+02 5.37329e+02
3.26803e-01 5.69984e+02 5.36965e+02
3.33833e-01 5.56581e+02 5.24135e+02
3.41015e-01 5.35188e+02 5.03990e+02
3.48351e-01 5.06642e+02 4.77336e+02
3.55845e-01 4.72638e+02 4.45759e+02
3.63500e-01 4.35429e+02 4.11354e+02
3.71320e-01 3.97377e+02 3.76301e+02
3.79308e-01 3.60518e+02 3.42471e+02
3.87468e-01 3.26277e+02 3.11160e+02
3.95803e-01 2.95406e+02 2.83034e+02
4.04318e-01 2.70745e+02 2.60885e+02
4.13016e-01 2.51639e+02 2.44044e+02
4.21901e-01 2.35012e+02 2.29441e+02
4.30977e-01 2.20526e+02 2.16759e+02
4.40248e-01 2.07910e+02 2.05749e+02
4.49719e-01 1.96964e+02 1.96241e+02
4.59394e-01 1.87537e+02 1.88110e+02
4.69276e-01 1.79499e+02 1.81252e+02
4.79372e-01 1.72722e+02 1.75561e+02
4.89684e-01 1.67078e+02 1.70932e+02
5.00218e-01 1.62559e+02 1.67409e+02
5.10979e-01 1.64110e+02 1.71646e+02
5.21972e-01 1.66574e+02 1.76799e+02
5.33201e-01 1.69557e+02 1.82406e+02
5.44671e-01 1.72423e+02 1.87702e+02
5.56389e-01 1.75983e+02 1.93715e+02
5.68358e-01 1.80242e+02 2.00464e+02
5.80585e-01 1.85228e+02 2.07991e+02
5.93074e-01 1.90996e+02 2.16369e+02
6.05833e-01 1.94872e+02 2.22016e+02
6.18866e-01 1.96367e+02 2.24263e+02
6.32179e-01 1.98935e+02 2.27695e+02
6.45779e-01 2.02771e+02 2.32536e+02
6.59672e-01 2.08080e+02 2.39023e+02
6.73863e-01 2.15024e+02 2.47341e+02
6.88359e-01 2.23587e+02 2.57471e+02
7.03168e-01 2.33329e+02 2.68914e+02
7.18294e-01 2.43047e+02 2.80308e+02
7.33747e-01 2.50546e+02 2.89189e+02
7.49532e-01 2.53044e+02 2.92469e+02
7.65656e-01 2.48529e+02 2.87984e+02
7.82127e-01 2.37267e+02 2.76147e+02
7.98953e-01 2.21834e+02 2.59912e+02
8.16140e-01 2.05474e+02 2.42921e+02
8.33697e-01 1.90506e+02 2.27766e+02
8.51632e-01 1.78126e+02 2.15805e+02
8.69953e-01 1.70232e+02 2.09064e+02
8.88668e-01 1.64500e+02 2.05236e+02
9.07785e-01 1.60504e+02 2.03959e+02
9.27314e-01 1.57826e+02 2.04863e+02
9.47263e-01 1.56091e+02 2.07535e+02
9.67641e-01 1.54959e+02 2.11376e+02
9.88457e-01 1.54121e+02 2.15380e+02
1.00972e+00 1.53300e+02 2.18037e+02
1.03144e+00 1.52289e+02 2.17709e+02
1.05363e+00 1.50987e+02 2.13602e+02
1.07630e+00 1.49411e+02 2.06432e+02
1.09945e+00 1.47652e+02 1.97867e+02
1.12310e+00 1.45829e+02 1.89412e+02
1.14727e+00 1.44052e+02 1.81900e+02
1.17195e+00 1.42412e+02 1.75598e+02
1.19716e+00 1.40977e+02 1.70482e+02
1.22291e+00 1.39792e+02 1.66421e+02
1.24922e+00 1.38883e+02 1.63262e+02
1.27609e+00 1.38255e+02 1.60866e+02
1.30355e+00 1.37896e+02 1.59102e+02
1.33159e+00 1.37777e+02 1.57856e+02
1.36023e+00 1.37851e+02 1.57015e+02
1.38950e+00 1.38054e+02 1.56467e+02
1.41939e+00 1.38306e+02 1.56096e+02
1.44992e+00 1.38512e+02 1.55779e+02
1.48111e+00 1.38572e+02 1.55394e+02
1.51298e+00 1.38392e+02 1.54833e+02
1.54552e+00 1.37907e+02 1.54017e+02
1.57877e+00 1.37095e+02 1.52913e+02
1.61274e+00 1.35983e+02 1.51543e+02
1.64743e+00 1.34646e+02 1.49975e+02
1.68287e+00 1.33179e+02 1.48299e+02
1.71907e+00 1.31680e+02 1.46611e+02
1.75605e+00 1.30230e+02 1.44987e+02
1.79383e+00 1.28885e+02 1.43482e+02
1.83242e+00 1.27676e+02 1.42126e+02
1.87184e+00 1.26615e+02 1.40927e+02
1.91211e+00 1.25700e+02 1.39883e+02
1.95324e+00 1.24921e+02 1.38981e+02
1.99526e+00 1.24262e+02 1.38207e+02
3.14366e+00 1.19692e+02 1.31760e+02
4.95304e+00 1.15571e+02 1.26058e+02
7.80383e+00 1.12045e+02 1.21113e+02
1.22954e+01 1.09594e+02 1.17410e+02
1.93722e+01 1.08932e+02 1.15657e+02
3.05222e+01 1.08991e+02 1.14768e+02
4.80896e+01 1.09715e+02 1.14671e+02
7.57682e+01 1.11047e+02 1.15297e+02
1.19378e+02 1.12938e+02 1.16579e+02
1.88087e+02 1.15342e+02 1.18461e+02
2.96343e+02 1.18221e+02 1.20892e+02
4.66907e+02 1.21545e+02 1.23831e+02
7.35642e+02 1.25287e+02 1.27243e+02
1.15905e+03 1.29426e+02 1.31099e+02
1.82616e+03 1.33948e+02 1.35378e+02
2.87723e+03 1.38840e+02 1.40062e+02
4.53326e+03 1.44094e+02 1.45138e+02
7.14243e+03 1.49705e+02 1.50596e+02
1.12534e+04 1.55671e+02 1.56431e+02
1.77304e+04 1.61992e+02 1.62640e+02
2.79353e+04 1.68671e+02 1.69222e+02
4.40139e+04 1.75712e+02 1.76180e+02
6.93467e+04 1.83122e+02 1.83518e+02
1.09260e+05 1.90908e+02 1.91243e+02
1.72146e+05 1.99080e+02 1.99362e+02
2.71227e+05 2.07649e+02 2.07886e+02
4.27336e+05 2.16627e+02 2.16825e+02
6.73295e+05 2.26029e+02 2.26193e+02
1.06082e+06 2.35868e+02 2.36003e+02
1.67139e+06 2.46161e+02 2.46271e+02
2.63338e+06 2.56924e+02 2.57013e+02
4.14905e+06 2.68178e+02 2.68247e+02
6.53709e+06 2.79940e+02 2.79993e+02
1.02996e+07 2.92232e+02 2.92270e+02
1.62277e+07 3.05075e+02 3.05101e+02
2.55677e+07 3.18493e+02 3.18508e+02
4.02836e+07 3.32510e+02 3.32515e+02
6.34694e+07 3.47151e+02 3.47147e+02
1.00000e+08 3.62444e+02 3.62431e+02
